"Time (s)","X (rad/s)","Y (rad/s)","Z (rad/s)"
3.206191667E-2,-2.029428482E0,-3.889601707E0,-9.071776271E-2
4.205891667E-2,-1.176636577E0,-3.263997793E0,-9.224675894E-1
5.205691667E-2,-3.056548536E-1,-1.515315056E0,-1.654500484E0
6.205491667E-2,1.615907550E-1,-6.785010695E-1,-2.053321838E0
7.205191667E-2,5.199661851E-2,-8.485995531E-1,-2.329708338E0
8.204991667E-2,-5.052990317E-1,-1.211541533E0,-2.589970827E0
9.204691667E-2,-1.287029982E0,-1.401058793E0,-2.677291393E0
1.020449167E-1,-2.126224518E0,-1.513275504E0,-2.561212301E0
1.120429167E-1,-2.875819683E0,-1.710485339E0,-2.301184177E0
1.220399167E-1,-3.428560495E0,-2.201242924E0,-1.876308560E0
1.320379167E-1,-3.627618074E0,-2.570416451E0,-1.385143161E0
1.420349167E-1,-3.465168238E0,-2.396594524E0,-1.058102727E0
1.520329167E-1,-2.997229576E0,-1.660944700E0,-9.190363884E-1
1.620299167E-1,-2.374953270E0,-6.016257405E-1,-8.083842397E-1
1.720279167E-1,-1.771967649E0,3.226307034E-1,-5.858030915E-1
1.820259167E-1,-1.270933270E0,9.765732884E-1,-3.677381873E-1
1.920229167E-1,-9.095727205E-1,1.315575361E0,-2.626128197E-1
2.020209167E-1,-6.693603396E-1,1.383645296E0,-1.970137954E-1
2.120179167E-1,-5.477607250E-1,1.111122370E0,-2.847718596E-1
2.220159167E-1,-4.812900722E-1,7.174732089E-1,-4.954762459E-1
2.320139167E-1,-4.210088849E-1,3.751302958E-1,-6.858235598E-1
2.420109167E-1,-3.476015627E-1,1.281580031E-1,-6.895994544E-1
2.520089167E-1,-2.205370665E-1,5.296177790E-2,-4.390878677E-1
2.620059167E-1,-9.611787274E-3,1.277997792E-1,-3.164632944E-3
2.720039167E-1,2.779882848E-1,3.010458648E-1,4.682460427E-1
2.820019167E-1,6.154482365E-1,5.339474678E-1,8.881205916E-1
2.919989167E-1,9.730036855E-1,7.952879667E-1,1.153130412E0
3.019969167E-1,1.291025519E0,1.050675035E0,1.139991522E0
3.119939167E-1,1.487043738E0,1.136454582E0,8.462691307E-1
3.219919167E-1,1.516381860E0,9.296529293E-1,4.284420311E-1
3.319889167E-1,1.384224415E0,8.127212524E-1,-1.041149627E-2
3.419869167E-1,1.066327929E0,6.667491198E-1,-3.158470094E-1
3.519849167E-1,5.163804293E-1,4.936599433E-1,-4.708110392E-1
3.619819167E-1,-2.729136944E-1,3.975921869E-1,-5.445585847E-1
3.719799167E-1,-1.213110566E0,5.125964880E-1,-5.815213919E-1
3.819769167E-1,-2.127011299E0,1.085105181E0,-5.698156953E-1
3.919749167E-1,-3.057053089E0,1.711163163E0,-5.744029880E-1
4.019729167E-1,-3.774653435E0,1.614583373E0,-4.774694443E-1
4.119699167E-1,-4.065402508E0,8.788838387E-1,-2.237836421E-1
4.219679167E-1,-3.835582018E0,-2.429555357E-1,4.034515917E-1
4.319649167E-1,-3.402669191E0,-1.565842509E0,1.387729287E0
4.419629167E-1,-2.853163481E0,-2.319249392E0,2.257682323E0
4.519609167E-1,-2.445182800E0,-2.079378605E0,2.514090776E0
4.619579167E-1,-2.265484333E0,-1.089688897E0,2.194618225E0
4.719559167E-1,-2.079831839E0,-9.233633429E-2,1.485946536E0
4.819529167E-1,-1.802506804E0,1.045816779E0,9.326575994E-1
4.919509167E-1,-1.338376403E0,1.578086495E0,9.387700558E-1
5.019489167E-1,-6.642563343E-1,9.615263343E-1,1.354181290E0
5.119459167E-1,-3.229939193E-2,6.113497913E-2,2.029705524E0
5.219439167E-1,5.322143435E-1,-6.914612055E-1,2.806883574E0
5.319409167E-1,1.129939318E0,-5.109428167E-1,3.555352688E0
5.419389167E-1,1.666988611E0,-1.646858640E-3,3.937395573E0
5.519369167E-1,2.303311110E0,1.163739681E0,4.050348282E0
5.619339167E-1,2.810076714E0,2.432189941E0,3.762985706E0
5.719319167E-1,3.087084532E0,2.506150484E0,3.078492880E0
5.819289167E-1,3.130716324E0,1.633112907E0,2.037118673E0
5.919269167E-1,2.814938784E0,-1.149838418E-1,1.156804681E0
6.019249167E-1,1.267381191E0,-4.112927437E0,1.415062249E-1
6.119219167E-1,3.732923269E-1,-6.537418842E0,-5.551767349E-1
6.219199167E-1,2.813806236E-1,-7.561126709E0,-1.007703424E0
6.319169167E-1,1.733676195E-1,-7.931457520E0,-8.595046401E-1
6.419149167E-1,6.116268039E-1,-6.731017113E0,8.298454881E-1
6.519129167E-1,1.155150056E0,-3.983551979E0,9.904024005E-1
6.619099167E-1,9.366615415E-1,-1.361445665E0,6.269412041E-1
6.719079167E-1,1.112877205E-1,-7.772830129E-2,4.700368047E-1
6.819049167E-1,3.054334782E-2,-1.116245836E-1,4.149151146E-1
6.919029167E-1,1.365944091E-2,-5.110020638E-1,4.503527284E-1
7.019009167E-1,5.193987861E-2,-7.329564095E-1,4.343192279E-1
7.118979167E-1,5.279210806E-1,-7.762396932E-1,4.723499715E-1
7.218959167E-1,1.225596428E0,-2.733971477E-1,7.112640142E-2
7.318929167E-1,1.557395697E0,-3.482082784E-1,-5.115095973E-1
7.418909167E-1,1.500965953E0,-5.898426175E-1,-8.101033568E-1
7.518889167E-1,1.376536608E0,-4.838858247E-1,-7.452716231E-1
7.618859167E-1,1.488667250E0,-1.701961905E-1,-5.073947310E-1
7.718839167E-1,1.848311901E0,4.057890177E-2,-3.565620258E-2
7.818809167E-1,2.244332552E0,3.422240317E-1,2.075703442E-1
7.918789167E-1,2.290365458E0,-7.381393015E-2,-1.173512861E-1
8.018769167E-1,1.754351258E0,-1.278058887E0,-1.104769826E0
8.118739167E-1,1.108899474E0,-2.098684788E0,-1.988672495E0
8.218719167E-1,4.399585724E-1,-2.411292791E0,-2.007519722E0
8.318689167E-1,-2.464203537E-1,-2.176559925E0,-2.146049023E0
8.418669167E-1,-8.037160039E-1,-1.766832829E0,-1.735584259E0
8.518649167E-1,-1.243256330E0,-1.336882591E0,-1.059867382E0
8.618619167E-1,-1.447633505E0,-8.252380490E-1,-4.626008570E-1
8.718598750E-1,-1.170368075E0,5.536521971E-2,-1.003012061E-1
8.818568750E-1,-3.916647434E-1,7.419711947E-1,-2.761977613E-1
8.918548750E-1,4.853333533E-1,8.262450695E-1,-6.017199755E-1
9.018528750E-1,9.029889107E-1,4.965416789E-1,-6.037820578E-1
9.118498750E-1,8.395087719E-1,8.122597635E-2,-5.605978370E-1
9.218478750E-1,4.582508802E-1,-5.648598075E-1,-5.391336083E-1
9.318448750E-1,3.279730678E-2,-1.359083652E0,-6.207491159E-1
9.418428750E-1,-2.761464119E-1,-2.123150587E0,-9.322314858E-1
9.518408750E-1,-3.918392062E-1,-1.654835939E0,-9.651058316E-1
9.618378750E-1,-5.917908996E-2,-1.440836906E0,-6.145174503E-1
9.718358750E-1,2.222075760E-1,-1.685792804E0,-8.162944913E-1
9.818328750E-1,6.008225679E-1,-2.257478952E0,-7.591184974E-1
9.918308750E-1,1.297580481E0,-2.635687828E0,-2.808866799E-1
1.001828875E0,1.896947622E0,-2.975422859E0,-8.792766184E-2
1.011825875E0,2.259167433E0,-3.080931902E0,-8.930239081E-2
1.021823875E0,2.418430090E0,-3.152592182E0,-8.366151899E-2
1.031820875E0,2.430653572E0,-3.283843994E0,-7.194307446E-2
1.041818875E0,2.314861298E0,-3.451171160E0,9.977408499E-2
1.051816875E0,2.176404953E0,-3.626547098E0,3.240069151E-1
1.061813875E0,2.295372248E0,-3.777908087E0,4.350032806E-1
1.071811875E0,2.765072584E0,-3.736184359E0,2.419070601E-1
1.081808875E0,3.440486431E0,-3.398896456E0,-1.945918351E-1
1.091806875E0,3.861080647E0,-2.578640699E0,-7.113726735E-1
1.101804875E0,3.647869110E0,-1.254883885E0,-9.936617613E-1
1.111801875E0,2.991376638E0,8.356808126E-2,-1.040247679E0
1.121799875E0,2.254681110E0,9.120134711E-1,-1.032019973E0
1.131797875E0,1.777009130E0,1.197860122E0,-1.036958337E0
1.141794875E0,1.751196742E0,6.972734332E-1,-9.264349937E-1
1.151792875E0,2.283895016E0,-4.294508994E-1,-6.746248603E-1
1.161789875E0,3.219610453E0,-1.326052666E0,-6.028954983E-1
1.171787875E0,3.983713388E0,-1.779433727E0,-7.179938555E-1
1.181785875E0,4.208831787E0,-2.296977043E0,-1.058155060E0
1.191782875E0,3.897522211E0,-1.359776735E0,-1.532654762E0
1.201780875E0,3.026710272E0,-5.461968184E-1,-1.074262381E0
1.211777875E0,1.748875260E0,8.014814854E-1,-4.514523149E-1
1.221775875E0,6.200367212E-1,1.690417647E0,-5.057211518E-1
1.231773875E0,-4.456046596E-2,2.156212091E0,-2.069325596E-1
1.241770875E0,-1.423477381E-1,1.981971741E0,2.636016719E-2
1.251768875E0,2.189926207E-1,1.441713333E0,2.832263112E-1
1.261765875E0,7.767288089E-1,8.323448300E-1,6.301807761E-1
1.271763875E0,1.230595469E0,3.031539321E-1,1.084991217E0
1.281761875E0,1.361248732E0,3.713043407E-2,1.549919128E0
1.291758875E0,1.142279029E0,4.507118091E-2,1.947845221E0
1.301756875E0,7.490359545E-1,2.901150286E-1,2.099213123E0
1.311753875E0,4.417961538E-1,3.724980652E-1,2.166348219E0
1.321751875E0,3.940965235E-1,1.886553168E-1,2.211489677E0
1.331749875E0,5.448849797E-1,-2.399304695E-2,2.087945938E0
1.341746875E0,8.576661348E-1,-2.323877513E-1,1.974170208E0
1.351744875E0,1.199048042E0,-4.038857520E-1,1.964343905E0
1.361741875E0,1.436545849E0,-7.079328299E-1,2.114786148E0
1.371739875E0,1.552297473E0,-1.301682949E0,2.333770990E0
1.381737875E0,1.593221784E0,-2.127113819E0,2.611684561E0
1.391734875E0,1.548366427E0,-2.868549824E0,2.914921522E0
1.401732875E0,1.332737803E0,-3.291868210E0,3.194852591E0
1.411730875E0,9.388152361E-1,-3.335364819E0,3.445981741E0
1.421727875E0,3.707055748E-1,-3.109296560E0,3.691321611E0
1.431725875E0,-3.329098523E-1,-2.755706787E0,3.941843033E0
1.441722875E0,-1.077827334E0,-2.360574007E0,4.192999840E0
1.451720875E0,-1.765012145E0,-1.960072041E0,4.363114834E0
1.461718875E0,-2.310421705E0,-1.726794600E0,4.467565060E0
1.471715875E0,-2.732244730E0,-1.753157496E0,4.496984005E0
1.481713875E0,-2.969562531E0,-1.967326283E0,4.357155323E0
1.491710875E0,-3.038231373E0,-2.386572123E0,3.929280043E0
1.501708875E0,-3.179825306E0,-3.323649883E0,3.509509563E0
1.511706875E0,-3.273993969E0,-4.659186840E0,3.913580656E0
1.521703875E0,-2.781549454E0,-5.685632706E0,4.896091938E0
1.531701875E0,-2.121796370E0,-5.567918301E0,5.294327736E0
1.541699875E0,-1.939993024E0,-4.228791714E0,4.446067333E0
1.551696875E0,-2.477908373E0,-2.468482971E0,3.118540287E0
1.561694875E0,-3.050323963E0,-4.836556613E-1,1.691125154E0
1.571691875E0,-2.909876585E0,7.453711033E-1,1.498113722E-1
1.581689875E0,-2.138720512E0,1.053489923E0,-1.313685179E0
1.591687875E0,-1.276345849E0,5.932632685E-1,-2.385083437E0
1.601684875E0,-5.946468115E-1,-2.649410963E-1,-2.482939243E0
1.611682875E0,-1.572939157E-1,-9.164933562E-1,-1.859180093E0
1.621679875E0,-1.856617779E-1,-1.073782325E0,-1.160716534E0
1.631677875E0,-6.394705176E-1,-8.350480199E-1,-6.855232716E-1
1.641675875E0,-1.377522588E0,-3.364607692E-1,-4.302980304E-1
1.651672875E0,-2.214667320E0,1.991317868E-1,-3.672298491E-1
1.661670875E0,-3.035421371E0,6.872441769E-1,-3.664692044E-1
1.671667875E0,-3.668195486E0,1.056895256E0,-3.928219974E-1
1.681665875E0,-3.967380762E0,1.226524711E0,-4.209370315E-1
1.691663875E0,-3.857450485E0,1.157770872E0,-4.425107539E-1
1.701660875E0,-3.329723835E0,1.034748316E0,-4.053716958E-1
1.711658875E0,-2.466694117E0,1.023108721E0,-2.867435813E-1
1.721656875E0,-1.414721608E0,1.110669494E0,-1.772463918E-1
1.731653875E0,-3.894861341E-1,1.269023418E0,-1.798871756E-1
1.741651875E0,4.271391630E-1,1.467804670E0,-3.332479298E-1
1.751648875E0,9.309546351E-1,1.563453197E0,-5.651423931E-1
1.761646875E0,1.153721333E0,1.608973145E0,-8.646371961E-1
1.771644875E0,1.209493995E0,1.595476031E0,-1.189065099E0
1.781641875E0,1.162427306E0,1.422401786E0,-1.538118839E0
1.791639875E0,1.013705730E0,1.163757682E0,-1.926764369E0
1.801636875E0,8.478575945E-1,9.503265619E-1,-2.287799120E0
1.811634875E0,7.662807107E-1,8.426948786E-1,-2.445031404E0
1.821632875E0,7.260440588E-1,9.787126780E-1,-2.543394566E0
1.831629875E0,6.871938705E-1,1.458087325E0,-2.866745949E0
1.841627875E0,7.725874186E-1,2.067813635E0,-3.803015471E0
1.851625875E0,1.059447050E0,2.185564518E0,-5.313065529E0
1.861622875E0,1.327007771E0,1.026601791E0,-6.562052727E0
1.871621125E0,1.637186646E0,-3.982828856E-1,-7.340929985E0
1.881618125E0,2.016338825E0,-2.587124705E-1,-7.824775219E0
1.891616125E0,2.183084488E0,1.770669818E0,-8.318361282E0
1.901614125E0,2.519659281E0,3.889227152E0,-8.293867111E0
1.911611125E0,3.161884069E0,4.715924263E0,-7.305493355E0
1.921609125E0,3.679208040E0,4.238144398E0,-6.312840462E0
1.931606125E0,3.687389851E0,3.703737974E0,-5.977511883E0
1.941604125E0,3.153136969E0,3.360921621E0,-5.914975166E0
1.951602125E0,2.395740747E0,3.190607548E0,-5.740012169E0
1.961599125E0,1.709988952E0,3.282669783E0,-5.380829334E0
1.971597125E0,1.267672777E0,3.527796507E0,-4.826623917E0
1.981595125E0,1.107036352E0,3.766914129E0,-4.068408489E0
1.991592125E0,1.150935888E0,3.849441528E0,-3.137514830E0
2.001590125E0,1.294238210E0,3.705246925E0,-2.101081133E0
2.011587125E0,1.364289165E0,3.357682943E0,-9.879044890E-1
2.021585125E0,1.231605768E0,2.979722500E0,1.582859159E-1
2.031583125E0,9.402096868E-1,2.794613600E0,1.244694829E0
2.041580125E0,4.986971319E-1,2.840052128E0,2.197529316E0
2.051578125E0,2.418934368E-3,3.075198650E0,2.963260651E0
2.061576125E0,-3.548036516E-1,3.395179033E0,3.523667336E0
2.071573125E0,-4.736061990E-1,3.542330265E0,3.984728098E0
2.081571125E0,-3.493501842E-1,3.260323286E0,4.469647408E0
2.091568125E0,-6.486013532E-2,2.474357367E0,5.030586243E0
2.101566125E0,1.849316061E-1,1.272035599E0,5.646806240E0
2.111564125E0,3.521219194E-1,-1.820599437E-1,6.198471069E0
2.121561125E0,4.541597664E-1,-1.517582178E0,6.593584061E0
2.131559125E0,3.493878245E-1,-2.444280148E0,6.840260029E0
2.141557125E0,-9.937329218E-3,-2.970962048E0,7.006774426E0
2.151554125E0,-6.297558546E-1,-3.181453705E0,7.117391109E0
2.161552125E0,-1.507239223E0,-3.089299440E0,7.129176617E0
2.171549125E0,-2.582489967E0,-2.906139612E0,6.920785427E0
2.181547125E0,-3.649950266E0,-2.724254131E0,6.468635082E0
2.191545125E0,-4.647368431E0,-2.720760584E0,5.817877769E0
2.201542125E0,-5.378567696E0,-2.921456575E0,4.993103504E0
2.211540125E0,-5.463676453E0,-3.337553024E0,4.411169052E0
2.221538125E0,-4.752744675E0,-4.418785572E0,5.105932713E0
2.231535125E0,-3.039368868E0,-5.308495522E0,6.735813141E0
2.241533125E0,-7.521625757E-1,-4.943901539E0,7.400655270E0
2.251530125E0,8.344803452E-1,-3.385333300E0,6.286448479E0
2.261528125E0,1.028515697E0,-1.894550323E0,3.851336002E0
2.271526125E0,1.526691318E-1,-1.376664758E0,1.325630546E0
2.281523125E0,-9.072656035E-1,-1.509965777E0,-4.650978446E-1
2.291521125E0,-1.777941108E0,-1.675296187E0,-1.239575624E0
2.301518125E0,-2.287768364E0,-1.664847493E0,-1.078983426E0
2.311516125E0,-2.484888077E0,-1.603892803E0,-4.763556719E-1
2.321514125E0,-2.567572117E0,-1.486183643E0,4.606483132E-2
2.331511125E0,-2.668747902E0,-1.327231765E0,4.155265093E-1
2.341509125E0,-2.769111156E0,-1.127548218E0,6.532890797E-1
2.351507125E0,-2.930531740E0,-9.234659672E-1,7.259805799E-1
2.361504125E0,-3.111775875E0,-7.724208236E-1,7.206367254E-1
2.371502125E0,-3.217792988E0,-6.647308469E-1,7.354297638E-1
2.381499125E0,-3.188467264E0,-5.404070020E-1,8.131975532E-1
2.391497125E0,-3.035048723E0,-3.939579129E-1,1.039521217E0
2.401495125E0,-2.816257477E0,-1.768221557E-1,1.272398233E0
2.411492125E0,-2.523819447E0,5.016864836E-2,1.361612558E0
2.421490125E0,-2.154602051E0,3.175807595E-1,1.227834105E0
2.431488125E0,-1.777781844E0,6.034828424E-1,8.063432574E-1
2.441485125E0,-1.262054443E0,9.536157846E-1,1.303272843E-1
2.451483125E0,-6.724258065E-1,1.281652331E0,-6.286760569E-1
2.461480125E0,-1.601659358E-1,1.367325902E0,-1.305492878E0
2.471478125E0,3.156669140E-1,1.071433067E0,-1.819939971E0
2.481476125E0,7.474042177E-1,5.803112984E-1,-2.155071974E0
2.491473125E0,1.008396864E0,1.835771091E-2,-2.438081980E0
2.501471125E0,1.269478202E0,-1.550353914E-1,-2.733065605E0
2.511469125E0,1.296963334E0,-5.063018203E-1,-3.121529579E0
2.521466125E0,1.134802461E0,-5.054802299E-1,-3.688936949E0
2.531464125E0,7.580328584E-1,-3.655337691E-1,-4.107967377E0
2.541461125E0,2.011227757E-1,3.902115226E-1,-4.424265862E0
2.551459125E0,-3.378570974E-1,1.608425021E0,-4.508833408E0
2.561457125E0,-6.260712147E-1,2.685072899E0,-4.434860229E0
2.571454125E0,-5.695333481E-1,3.050800562E0,-4.482409477E0
2.581452125E0,-1.310499907E-1,2.389579535E0,-4.583958149E0
2.591450125E0,4.009092748E-1,1.654512644E0,-4.868893623E0
2.601447125E0,7.490476370E-1,2.056809902E0,-5.480855465E0
2.611445125E0,8.500051498E-1,3.196915388E0,-5.879932404E0
2.621442125E0,1.082078695E0,4.134374619E0,-5.417144775E0
2.631440125E0,1.614710927E0,4.406439781E0,-5.011045456E0
2.641438125E0,2.220771551E0,4.589547634E0,-5.314049721E0
2.651435125E0,2.690162897E0,4.555092812E0,-5.679290295E0
2.661433125E0,3.049641132E0,4.482237816E0,-5.842468739E0
2.671431125E0,3.315622568E0,4.279107094E0,-5.738816261E0
2.681428125E0,3.431983232E0,3.877822161E0,-5.439723492E0
2.691426125E0,3.269586802E0,3.386848688E0,-5.003462791E0
2.701424125E0,2.757493496E0,3.092423201E0,-4.487884045E0
2.711421125E0,1.913384914E0,3.012273312E0,-3.931096554E0
2.721419125E0,8.394000530E-1,3.117290258E0,-3.303430557E0
2.731416125E0,-2.585115135E-1,3.412785530E0,-2.599421978E0
2.741414125E0,-1.201883435E0,3.838072777E0,-1.839284420E0
2.751412125E0,-1.908972144E0,4.284945488E0,-1.086419463E0
2.761409125E0,-2.434161663E0,4.588510990E0,-3.065773845E-1
2.771407125E0,-2.797461033E0,4.728500843E0,5.170829296E-1
2.781405125E0,-2.892682076E0,4.617121696E0,1.341039896E0
2.791402125E0,-2.559052944E0,4.233268261E0,2.049573183E0
2.801400125E0,-1.874049187E0,3.505708218E0,2.551133633E0
2.811398125E0,-9.843826890E-1,2.427789688E0,2.891807318E0
2.821395125E0,-3.866475448E-2,1.054108143E0,3.181496620E0
2.831393125E0,7.679936886E-1,-3.973308504E-1,3.475271940E0
2.841390125E0,1.204217553E0,-1.599884391E0,3.791064024E0
2.851388125E0,1.227802038E0,-2.397166491E0,4.115677357E0
2.861386125E0,8.501966596E-1,-2.810980082E0,4.492951393E0
2.871382417E0,1.201707050E-1,-2.935916424E0,4.851605415E0
2.881380417E0,-8.559716940E-1,-2.859447241E0,5.118897915E0
2.891378417E0,-1.931064487E0,-2.713177204E0,5.244407177E0
2.901375417E0,-2.885252476E0,-2.692853689E0,5.085548401E0
2.911373417E0,-3.656514645E0,-2.816783905E0,4.586672783E0
2.921371417E0,-4.178185940E0,-3.214671612E0,3.915413857E0
2.931368417E0,-4.230468750E0,-3.631770134E0,3.168435335E0
2.941366417E0,-3.690928936E0,-4.472590923E0,3.033059835E0
2.951363417E0,-2.500987053E0,-6.016106129E0,4.201861858E0
2.961361417E0,-7.906661034E-1,-6.216481686E0,5.305743217E0
2.971359417E0,4.281679690E-1,-4.634435654E0,5.214867592E0
2.981356417E0,4.555217326E-1,-2.711384058E0,4.041060925E0
2.991354417E0,-4.218415022E-1,-1.739875078E0,2.291143656E0
3.001352417E0,-1.471180439E0,-1.293822527E0,5.507173538E-1
3.011349417E0,-2.046241760E0,-1.028982282E0,-9.594073892E-1
3.021347417E0,-2.115417719E0,-8.875466585E-1,-2.097971678E0
3.031344417E0,-1.907857418E0,-1.251372814E0,-2.448800564E0
3.041342417E0,-1.691703677E0,-1.736502886E0,-2.029380560E0
3.051340417E0,-1.575402379E0,-1.845633388E0,-1.336017609E0
3.061337417E0,-1.582578182E0,-1.557400942E0,-6.712710261E-1
3.071335417E0,-1.678223491E0,-1.160559773E0,-1.660515517E-1
3.081333417E0,-1.863810062E0,-7.978265882E-1,1.124500036E-1
3.091330417E0,-2.132055521E0,-4.072197080E-1,2.471992970E-1
3.101328417E0,-2.330069780E0,3.095641267E-3,4.408783317E-1
3.111326417E0,-2.274134398E0,3.656956851E-1,7.457487583E-1
3.121323417E0,-1.891517639E0,6.125352979E-1,9.847988486E-1
3.131321417E0,-1.268528938E0,7.330853939E-1,9.772788882E-1
3.141319417E0,-5.547052622E-1,7.111252546E-1,7.543072104E-1
3.151316417E0,1.019695252E-1,5.466372371E-1,5.292456150E-1
3.161314417E0,6.173841953E-1,3.162677288E-1,3.620192111E-1
3.171311417E0,9.755351543E-1,1.273127347E-1,2.348184139E-1
3.181309417E0,1.154578805E0,2.654007450E-2,8.290891349E-2
3.191307417E0,1.178957105E0,2.804396302E-2,-1.665871888E-1
3.201304417E0,1.188503504E0,-1.587972790E-2,-4.713624716E-1
3.211302417E0,1.267681956E0,-5.590117723E-2,-8.132929206E-1
3.221300417E0,1.374773741E0,2.187900990E-2,-1.162934899E0
3.231297417E0,1.436004877E0,1.678553969E-1,-1.415042520E0
3.241295417E0,1.443240881E0,1.621102393E-1,-1.491699457E0
3.251293417E0,1.357800841E0,1.759762615E-1,-1.547874331E0
3.261290417E0,1.208263993E0,2.350629866E-1,-1.626781464E0
3.271288417E0,1.081894398E0,4.125288427E-1,-1.761494875E0
3.281285417E0,1.117999792E0,8.912517428E-1,-1.936535239E0
3.291283417E0,1.071123362E0,1.803943396E0,-2.363780022E0
3.301281417E0,9.985541701E-1,2.869950056E0,-3.058308840E0
3.311278417E0,1.134775162E0,3.461797237E0,-3.781038046E0
3.321276417E0,1.572412252E0,3.170264721E0,-4.585967064E0
3.331274417E0,2.394743919E0,2.389931440E0,-5.703662872E0
3.341271417E0,3.240629911E0,1.775992632E0,-6.802070141E0
3.351269417E0,3.603331804E0,1.588612080E0,-6.924896240E0
3.361267417E0,3.459413767E0,1.603452325E0,-6.365566254E0
3.371264417E0,2.983450651E0,1.910878301E0,-6.037878990E0
3.381262417E0,2.125800371E0,2.356375217E0,-6.106442451E0
3.391260417E0,1.146642566E0,2.720352173E0,-6.183040142E0
3.401257417E0,3.307881653E-1,2.864279747E0,-5.924162865E0
