"Time (s)","X (rad/s)","Y (rad/s)","Z (rad/s)"
1.745212500E-2,-1.164216280E0,-7.384195924E-1,-8.299699426E-1
2.744912500E-2,-1.278872490E0,-7.486939430E-1,-8.737633228E-1
3.744612500E-2,-1.184306383E0,-7.766770720E-1,-8.964433074E-1
4.744312500E-2,-8.775772452E-1,-6.625339985E-1,-8.898552060E-1
5.744012501E-2,-4.892824888E-1,-4.329463243E-1,-8.005911112E-1
6.743712501E-2,-1.130937785E-1,-2.240428030E-1,-6.375824213E-1
7.743412500E-2,2.115618140E-1,-1.262531281E-1,-4.026396871E-1
8.743112500E-2,4.469997287E-1,-1.488472223E-1,-1.519561708E-1
9.742912500E-2,5.884428620E-1,-2.614464760E-1,4.978042096E-2
1.074261250E-1,6.421064138E-1,-4.727119505E-1,1.812674850E-1
1.174231250E-1,6.285195351E-1,-7.512887120E-1,2.632622123E-1
1.274201250E-1,5.860466361E-1,-1.044688582E0,3.203343749E-1
1.374171250E-1,5.365408659E-1,-1.330735207E0,3.612319827E-1
1.474141250E-1,5.153734684E-1,-1.622775793E0,4.081780314E-1
1.574111250E-1,5.856340528E-1,-1.911544800E0,4.621997476E-1
1.674081250E-1,7.566724420E-1,-2.032758713E0,5.064997673E-1
1.774051250E-1,1.015125632E0,-2.001205206E0,5.306783319E-1
1.874021250E-1,1.296164274E0,-1.833996534E0,5.302822590E-1
1.973991250E-1,1.510068297E0,-1.617430449E0,5.356751680E-1
2.073961250E-1,1.615468383E0,-1.399850965E0,5.319946408E-1
2.173941250E-1,1.590140700E0,-1.160694242E0,5.109769702E-1
2.273911250E-1,1.463794708E0,-8.897589445E-1,4.720609784E-1
2.373881250E-1,1.263731360E0,-5.963103175E-1,3.959622085E-1
2.473851250E-1,1.013374329E0,-3.925199509E-1,2.715754807E-1
2.573821250E-1,7.246704102E-1,-3.162110746E-1,1.038943380E-1
2.673791250E-1,3.756099641E-1,-3.098434508E-1,-6.149237230E-2
2.773761250E-1,-1.664436236E-2,-2.425448298E-1,-1.902359724E-1
2.873731250E-1,-3.848606944E-1,-2.004061937E-1,-2.521257997E-1
2.973701250E-1,-6.312763095E-1,-1.744624823E-1,-2.382653803E-1
3.073671250E-1,-6.960576177E-1,-7.136119902E-2,-1.570747197E-1
3.173641250E-1,-5.811715126E-1,1.249071136E-1,-3.585534543E-2
3.273621250E-1,-3.631527424E-1,3.872205615E-1,9.988304973E-2
3.373591250E-1,-1.368951350E-1,6.011629105E-1,2.246454805E-1
3.473561250E-1,3.701492772E-2,6.903855801E-1,3.269048631E-1
3.573531250E-1,1.140966639E-1,6.470745802E-1,3.931296766E-1
3.673501250E-1,1.242236570E-1,5.333555937E-1,4.426842928E-1
3.773471250E-1,7.684575766E-2,4.350977540E-1,4.703393579E-1
3.873441250E-1,-7.601379417E-3,3.517804146E-1,4.725236297E-1
3.973411250E-1,-9.492670000E-2,2.797970474E-1,4.629373252E-1
4.073381250E-1,-1.421629637E-1,2.656986713E-1,4.331252277E-1
4.173351250E-1,-1.591861546E-1,3.592432737E-1,3.794596195E-1
4.273321250E-1,-2.048272640E-1,4.651907682E-1,2.890458703E-1
4.373301250E-1,-3.071770668E-1,5.519959331E-1,1.637819558E-1
4.473271250E-1,-4.595359564E-1,6.142770052E-1,1.922374964E-2
4.573241250E-1,-6.293050051E-1,5.767509341E-1,-1.129643768E-1
4.673211250E-1,-7.954420447E-1,5.537103415E-1,-2.291642129E-1
4.773181250E-1,-9.505105019E-1,5.405348539E-1,-3.507343233E-1
4.873151250E-1,-1.133346319E0,4.366783202E-1,-4.787693918E-1
4.973121250E-1,-1.484120131E0,2.987092435E-1,-5.788621306E-1
5.073091250E-1,-2.166886568E0,2.237682045E-1,-4.660290778E-1
5.173061250E-1,-3.101167917E0,3.043717146E-1,9.176177531E-2
5.273031250E-1,-4.006456375E0,4.949982464E-1,9.698258042E-1
5.373001250E-1,-4.706368923E0,8.911821246E-1,1.853112698E0
5.472971250E-1,-4.998775959E0,8.682441115E-1,2.540131330E0
5.572951250E-1,-4.954670429E0,3.592815101E-1,2.914195538E0
5.672921250E-1,-4.649278641E0,-3.764978647E-1,2.997594357E0
5.772891250E-1,-4.016585827E0,-5.082495213E-1,2.872755051E0
5.872861250E-1,-2.722891092E0,6.588937044E-1,2.632705212E0
5.972831250E-1,-1.236683846E0,1.862885118E0,2.220728159E0
6.072801250E-1,3.697156906E-2,2.639442205E0,1.894932270E0
6.172771250E-1,9.497804046E-1,2.976444244E0,1.777301788E0
6.272741250E-1,1.683256507E0,2.683702230E0,1.859299898E0
6.372711250E-1,2.315866232E0,2.216519356E0,2.021054506E0
6.472681250E-1,2.967055559E0,1.570169210E0,2.263000250E0
6.572651250E-1,3.863930941E0,6.939427257E-1,2.706458569E0
6.672631250E-1,4.852893829E0,-2.450325489E-1,2.956705093E0
6.772601250E-1,4.801175594E0,-3.718055487E0,2.354464054E0
6.872571250E-1,3.212436199E0,-5.789995193E0,7.600837350E-1
6.972541250E-1,2.368466616E0,-5.564361572E0,-1.865150332E-1
7.072511250E-1,1.778927684E0,-5.286540508E0,-6.931241155E-1
7.172481250E-1,1.246271849E0,-5.238427639E0,-1.120214701E0
7.272451250E-1,1.256630182E0,-5.330343246E0,-1.112828732E0
7.372421250E-1,1.274449944E0,-5.514950275E0,-1.127250552E0
7.472391250E-1,1.225942850E0,-5.632475376E0,-1.154996157E0
7.572361250E-1,1.092338681E0,-5.533397675E0,-1.095024943E0
7.672331250E-1,9.085466266E-1,-5.267296314E0,-8.714390397E-1
7.772301250E-1,5.062209964E-1,-4.952557564E0,-6.430751085E-1
7.872281250E-1,-1.129761115E-1,-4.422768116E0,-4.510773420E-1
7.972251250E-1,-6.912101507E-1,-4.292927742E0,-3.152393699E-1
8.072221250E-1,-1.357912898E0,-4.383911133E0,-1.626441330E-1
8.172191250E-1,-1.894625425E0,-4.505503654E0,-2.383830398E-2
8.272161250E-1,-2.159733057E0,-4.600402355E0,4.001357779E-2
8.372131250E-1,-2.218412876E0,-4.861775875E0,5.735102296E-2
8.472101250E-1,-2.109558582E0,-5.239990234E0,2.017229199E-1
8.572071250E-1,-1.852121830E0,-5.496975899E0,4.996747077E-1
8.672041250E-1,-1.501389503E0,-5.770050526E0,8.159892559E-1
8.772011250E-1,-1.025380850E0,-6.039865494E0,1.036300540E0
8.871981250E-1,-4.267332852E-1,-6.242412090E0,1.145668745E0
8.971961250E-1,2.031447738E-1,-6.360506535E0,1.098065495E0
9.071931250E-1,8.094500899E-1,-6.315510273E0,1.026210308E0
9.171901250E-1,1.334780216E0,-6.167751312E0,1.178286910E0
9.271871250E-1,1.726603627E0,-5.899120808E0,1.435479045E0
9.371840000E-1,1.989405990E0,-5.564896584E0,1.576345086E0
9.471810000E-1,2.153915405E0,-5.266953468E0,1.685297489E0
9.571780000E-1,2.201233864E0,-5.089359283E0,1.799757004E0
9.671750000E-1,2.110818148E0,-4.880764961E0,1.932100654E0
9.771720000E-1,1.892968178E0,-4.565820217E0,2.087568760E0
9.871690000E-1,1.601007462E0,-4.217032433E0,2.263490438E0
9.971660000E-1,1.242425680E0,-3.870168209E0,2.456442356E0
1.007164000E0,8.319592476E-1,-3.501994371E0,2.715128422E0
1.017161000E0,4.040580392E-1,-3.061451197E0,3.077816248E0
1.027158000E0,-2.645927854E-2,-2.593156338E0,3.470978975E0
1.037155000E0,-4.545016885E-1,-2.100325346E0,3.850239992E0
1.047152000E0,-8.724316955E-1,-1.523294210E0,4.106686115E0
1.057149000E0,-1.301264286E0,-9.103873372E-1,4.110738277E0
1.067146000E0,-1.730220556E0,-3.866952658E-1,3.968094826E0
1.077143000E0,-2.099913836E0,2.917331085E-2,3.833297253E0
1.087140000E0,-2.386745691E0,3.666955829E-1,3.773709297E0
1.097137000E0,-2.588626385E0,6.134043932E-1,3.771663189E0
1.107134000E0,-2.724161625E0,7.551638484E-1,3.823783159E0
1.117131000E0,-2.805878162E0,7.316318750E-1,3.843586922E0
1.127129000E0,-2.812366247E0,5.862362385E-1,3.764065027E0
1.137126000E0,-2.765590906E0,3.957277834E-1,3.582174063E0
1.147123000E0,-2.728069782E0,1.674109995E-1,3.326971054E0
1.157120000E0,-2.754564524E0,-1.008218713E-2,3.064671755E0
1.167117000E0,-2.828842878E0,-1.074862629E-1,2.841843843E0
1.177114000E0,-2.911927700E0,-8.977677673E-2,2.689398766E0
1.187111000E0,-2.937488794E0,6.754593551E-2,2.627702713E0
1.197108000E0,-2.900741816E0,3.406099677E-1,2.627163172E0
1.207105000E0,-2.775416851E0,6.200103760E-1,2.647734404E0
1.217102000E0,-2.556635618E0,8.004624844E-1,2.615756512E0
1.227099000E0,-2.299141884E0,8.606892824E-1,2.500049829E0
1.237096000E0,-2.065334558E0,8.488419056E-1,2.270226717E0
1.247094000E0,-1.932627201E0,7.886888981E-1,1.966514826E0
1.257091000E0,-1.901298881E0,7.221751213E-1,1.649089456E0
1.267088000E0,-1.938646317E0,6.866828799E-1,1.383993268E0
1.277085000E0,-2.011544704E0,7.313424945E-1,1.213257790E0
1.287082000E0,-2.076499462E0,8.972029090E-1,1.114967465E0
1.297079000E0,-2.110864162E0,1.121962786E0,1.040214419E0
1.307076000E0,-2.057818651E0,1.260760188E0,9.497567415E-1
1.317073000E0,-1.867975116E0,1.295822263E0,8.000793457E-1
1.327070000E0,-1.566720843E0,1.237190962E0,6.217038631E-1
1.337067000E0,-1.234102607E0,1.056585431E0,4.960156679E-1
1.347064000E0,-9.385277033E-1,8.302578330E-1,4.568192661E-1
1.357061000E0,-6.940780282E-1,6.258729696E-1,4.684511423E-1
1.367059000E0,-4.600059688E-1,4.660242498E-1,4.884155691E-1
1.377056000E0,-1.688366979E-1,3.582005799E-1,4.934923351E-1
1.387053000E0,1.632906348E-1,2.687564790E-1,4.998248518E-1
1.397050000E0,4.822782278E-1,1.622824967E-1,4.705676138E-1
1.407047000E0,7.712663412E-1,3.963724151E-2,3.656015098E-1
1.417044000E0,9.908402562E-1,-5.358591303E-2,1.756539494E-1
1.427041000E0,1.106144667E0,-8.498205990E-2,-7.308705151E-2
1.437038000E0,1.147063851E0,-4.489003122E-2,-3.330616653E-1
1.447035000E0,1.186664104E0,2.208583988E-2,-5.574547052E-1
1.457032000E0,1.255879998E0,8.515535295E-2,-7.225515246E-1
1.467029000E0,1.364082932E0,1.065952331E-1,-8.218892217E-1
1.477027000E0,1.499552369E0,7.898331434E-2,-8.626675606E-1
1.487024000E0,1.647577882E0,9.885964915E-3,-8.719044924E-1
1.497021000E0,1.799742103E0,-6.833640486E-2,-9.009777308E-1
1.507018000E0,1.973372817E0,-1.396505684E-1,-9.664805532E-1
1.517015000E0,2.170379400E0,-2.109505832E-1,-1.051837564E0
1.527012000E0,2.355231524E0,-2.747429609E-1,-1.140386105E0
1.537009000E0,2.517204523E0,-3.431691527E-1,-1.238017082E0
1.547006000E0,2.644160032E0,-3.948999643E-1,-1.353763938E0
1.557003000E0,2.711561441E0,-4.364487529E-1,-1.478886485E0
1.567000000E0,2.710936785E0,-4.569345713E-1,-1.615616560E0
1.576997000E0,2.642326355E0,-4.551862180E-1,-1.772866368E0
1.586994000E0,2.526315928E0,-4.479522109E-1,-1.926874518E0
1.596992000E0,2.394383430E0,-4.188955426E-1,-2.067063808E0
1.606989000E0,2.270130157E0,-3.943947554E-1,-2.206648111E0
1.616986000E0,2.154415607E0,-3.802672327E-1,-2.343147278E0
1.626983000E0,2.045357227E0,-3.693712056E-1,-2.476482391E0
1.636980000E0,1.946972728E0,-3.704894781E-1,-2.583083391E0
1.646977000E0,1.839105248E0,-3.908478022E-1,-2.658963919E0
1.656974000E0,1.724183917E0,-3.961160481E-1,-2.693839550E0
1.666971000E0,1.600718021E0,-3.906037509E-1,-2.693091869E0
1.676968000E0,1.481144071E0,-3.701426983E-1,-2.665107250E0
1.686965000E0,1.380012035E0,-3.359060287E-1,-2.618452787E0
1.696962000E0,1.294061780E0,-2.856463194E-1,-2.563504934E0
1.706959000E0,1.210142374E0,-2.252195925E-1,-2.512232780E0
1.716957000E0,1.118314981E0,-1.640398502E-1,-2.459747791E0
1.726954000E0,1.026448488E0,-1.026478410E-1,-2.412694216E0
1.736951000E0,9.399468899E-1,-3.200083971E-2,-2.361473322E0
1.746948000E0,8.513698578E-1,3.792868555E-2,-2.288211107E0
1.756945000E0,7.762484550E-1,8.799345046E-2,-2.200314522E0
1.766942000E0,7.242948413E-1,1.305548996E-1,-2.096215963E0
1.776939000E0,6.871994138E-1,1.659110188E-1,-1.953202128E0
1.786936000E0,6.518962979E-1,1.773653626E-1,-1.766524434E0
1.796933000E0,5.978306532E-1,1.765754819E-1,-1.553767681E0
1.806930000E0,5.213490725E-1,1.533098668E-1,-1.300849319E0
1.816927000E0,4.112391174E-1,1.125691012E-1,-1.001085401E0
1.826924000E0,2.585606277E-1,4.534026235E-2,-6.880080104E-1
1.836922000E0,6.858667731E-2,-3.164133802E-2,-3.763236403E-1
1.846919000E0,-1.602052301E-1,-1.280190200E-1,-7.035677880E-2
1.856916000E0,-3.931151628E-1,-2.106393278E-1,2.212985009E-1
1.866913000E0,-6.347695589E-1,-2.518111467E-1,5.152822733E-1
1.876910000E0,-8.650155663E-1,-2.688985169E-1,8.175076842E-1
1.886907000E0,-1.057047129E0,-2.610521913E-1,1.120268226E0
1.896904000E0,-1.201211214E0,-2.079058886E-1,1.429059625E0
1.906901000E0,-1.281065226E0,-1.264366955E-1,1.768417239E0
1.916898000E0,-1.312376261E0,-1.735867746E-2,2.075360775E0
1.926895000E0,-1.302945495E0,1.100638881E-1,2.301649809E0
1.936892875E0,-1.225430727E0,2.469650060E-1,2.423609734E0
1.946889875E0,-1.089638710E0,3.831653893E-1,2.437454224E0
1.956887875E0,-9.001705050E-1,4.780253470E-1,2.376000881E0
1.966884875E0,-7.109939456E-1,5.252094269E-1,2.267971039E0
1.976881875E0,-5.321850181E-1,5.234229565E-1,2.135345459E0
1.986878875E0,-3.798083067E-1,4.427416027E-1,2.015538931E0
1.996875875E0,-2.645967603E-1,2.828533947E-1,1.929915190E0
2.006872875E0,-1.885017902E-1,7.526843250E-2,1.858052254E0
2.016869875E0,-1.584133953E-1,-1.577802598E-1,1.786208510E0
2.026866875E0,-1.724770665E-1,-3.884207606E-1,1.706587315E0
2.036863875E0,-2.218536586E-1,-5.647954941E-1,1.623005867E0
2.046860875E0,-3.152962625E-1,-6.673389077E-1,1.526141167E0
2.056857875E0,-4.469091594E-1,-6.822973490E-1,1.442371130E0
2.066854875E0,-6.064883471E-1,-6.212655306E-1,1.415260911E0
2.076851875E0,-7.946313620E-1,-5.115204453E-1,1.464843631E0
2.086849875E0,-9.935415387E-1,-3.635272682E-1,1.569616556E0
2.096846875E0,-1.180395126E0,-1.803308278E-1,1.721664190E0
2.106843875E0,-1.326123476E0,1.149804704E-2,1.898804665E0
2.116840875E0,-1.424722195E0,2.255845070E-1,2.073601961E0
2.126837875E0,-1.479461432E0,4.288228750E-1,2.222581625E0
2.136834875E0,-1.502358198E0,5.740543604E-1,2.338873625E0
2.146831875E0,-1.498000145E0,6.461095214E-1,2.419774055E0
2.156828875E0,-1.483963370E0,6.519032121E-1,2.462321281E0
2.166825875E0,-1.457340837E0,5.745471716E-1,2.488195658E0
2.176822875E0,-1.418150783E0,4.366249740E-1,2.505264282E0
2.186819875E0,-1.380258203E0,2.585946321E-1,2.534570932E0
2.196816875E0,-1.348417401E0,7.340638340E-2,2.565889835E0
2.206813875E0,-1.301590562E0,-9.573269635E-2,2.594501257E0
2.216811875E0,-1.245911598E0,-2.251444906E-1,2.631139278E0
2.226808875E0,-1.186473250E0,-3.211506605E-1,2.663688421E0
2.236805875E0,-1.137643933E0,-3.874508440E-1,2.692854404E0
2.246802875E0,-1.122379184E0,-4.139926434E-1,2.726264954E0
2.256799875E0,-1.150134325E0,-4.011673927E-1,2.764419556E0
2.266796875E0,-1.216056824E0,-3.407575190E-1,2.800434589E0
2.276793875E0,-1.305260777E0,-2.570588887E-1,2.826442719E0
2.286790875E0,-1.414914370E0,-1.444407403E-1,2.845523834E0
2.296787875E0,-1.510098934E0,-3.005024046E-2,2.839053154E0
2.306784875E0,-1.587324023E0,6.597805768E-2,2.815999269E0
2.316781875E0,-1.648920774E0,1.408389956E-1,2.787707090E0
2.326778875E0,-1.683914304E0,1.819494665E-1,2.750708818E0
2.336776875E0,-1.666501999E0,2.074585557E-1,2.699011326E0
2.346773875E0,-1.606027126E0,2.323277146E-1,2.618110657E0
2.356770875E0,-1.511876464E0,2.472757697E-1,2.493596315E0
2.366767875E0,-1.394893289E0,2.519432604E-1,2.353432417E0
2.376764875E0,-1.257509828E0,2.389542162E-1,2.205717564E0
2.386761875E0,-1.104141474E0,2.217818648E-1,2.040204048E0
2.396758875E0,-9.678321481E-1,1.993511319E-1,1.833677649E0
2.406755875E0,-8.479387760E-1,1.600049287E-1,1.576710224E0
2.416752875E0,-7.105076909E-1,1.421654820E-1,1.335393548E0
2.426749875E0,-5.292377472E-1,1.645823717E-1,1.156344652E0
2.436746875E0,-2.809816599E-1,2.029733360E-1,1.006315112E0
2.446743875E0,9.679734707E-3,2.209489346E-1,8.512733579E-1
2.456741875E0,2.965586185E-1,2.406976074E-1,6.844489574E-1
2.466738875E0,5.694820285E-1,2.896595001E-1,5.165072680E-1
2.476735875E0,8.289069533E-1,3.561506569E-1,3.353220522E-1
2.486732875E0,1.052063704E0,4.214819968E-1,1.162219420E-1
2.496729875E0,1.207567573E0,4.634925425E-1,-1.707067639E-1
2.506726875E0,1.306284785E0,4.656666517E-1,-5.247887969E-1
2.516723875E0,1.356395125E0,3.971733451E-1,-9.088571072E-1
2.526720875E0,1.373735905E0,2.865232527E-1,-1.259105206E0
2.536717875E0,1.388127089E0,1.647954881E-1,-1.553216219E0
2.546714875E0,1.404741406E0,3.904144093E-2,-1.791734219E0
2.556711875E0,1.429025650E0,-1.185796112E-1,-1.995661497E0
2.566708875E0,1.465335011E0,-3.074268103E-1,-2.181090117E0
2.576705875E0,1.513033390E0,-5.325241089E-1,-2.346031666E0
2.586702875E0,1.544039726E0,-7.580415606E-1,-2.492612600E0
2.596700875E0,1.575450659E0,-9.823798537E-1,-2.628532410E0
2.606697875E0,1.627250075E0,-1.184102774E0,-2.762996674E0
2.616694875E0,1.685630202E0,-1.352404714E0,-2.881378651E0
2.626691875E0,1.748057961E0,-1.483783722E0,-2.994716167E0
2.636688875E0,1.796029568E0,-1.577904105E0,-3.096272945E0
2.646685875E0,1.826851726E0,-1.625242591E0,-3.188787699E0
2.656682875E0,1.844659925E0,-1.622583747E0,-3.268059731E0
2.666679875E0,1.848649263E0,-1.591661811E0,-3.341080189E0
2.676676875E0,1.830847144E0,-1.557189822E0,-3.398796797E0
2.686673875E0,1.803524494E0,-1.517261505E0,-3.469441175E0
2.696670875E0,1.760101080E0,-1.490054607E0,-3.593239307E0
2.706667875E0,1.698106170E0,-1.464459777E0,-3.763600111E0
2.716664875E0,1.596705198E0,-1.417047024E0,-3.942434311E0
2.726662875E0,1.466540098E0,-1.332398295E0,-4.100970745E0
2.736659875E0,1.329999804E0,-1.215850949E0,-4.235394955E0
2.746656875E0,1.219465971E0,-1.094991565E0,-4.330475330E0
2.756653875E0,1.113835335E0,-9.593346715E-1,-4.376669407E0
2.766650875E0,1.001286387E0,-8.163411617E-1,-4.358329296E0
2.776647875E0,9.010263681E-1,-6.781398654E-1,-4.295775890E0
2.786644875E0,8.403881788E-1,-5.585317612E-1,-4.192316532E0
2.796641875E0,8.009420037E-1,-4.484966099E-1,-4.064877033E0
2.806638875E0,7.792574763E-1,-3.655045629E-1,-3.928421497E0
2.816635875E0,7.671595216E-1,-3.063413799E-1,-3.788104296E0
2.826632875E0,7.525822520E-1,-2.627940178E-1,-3.642753363E0
2.836629875E0,7.270880342E-1,-2.267582417E-1,-3.486667633E0
2.846626875E0,6.721818447E-1,-1.790287197E-1,-3.322877407E0
2.856624875E0,5.965150595E-1,-1.522498429E-1,-3.151458263E0
2.866621875E0,5.066658258E-1,-1.231956333E-1,-2.990724325E0
2.876618875E0,4.028906822E-1,-8.075310290E-2,-2.812389374E0
2.886615875E0,2.839222252E-1,-3.934970498E-2,-2.632776260E0
2.896612875E0,1.613542289E-1,-5.633821245E-3,-2.451533079E0
2.906609875E0,2.389799617E-2,2.497818880E-2,-2.261492968E0
2.916606875E0,-1.158196926E-1,4.070974886E-2,-2.068888187E0
2.926603875E0,-2.725699246E-1,5.764550716E-2,-1.867406964E0
2.936599708E0,-4.525048137E-1,7.775929570E-2,-1.658639312E0
2.946596708E0,-6.496961713E-1,1.193018705E-1,-1.459102869E0
2.956593708E0,-8.501789570E-1,1.886399388E-1,-1.272412062E0
2.966590708E0,-1.060071588E0,2.753528953E-1,-1.074596286E0
2.976587708E0,-1.262644410E0,3.919434249E-1,-8.417888880E-1
2.986585708E0,-1.452713132E0,5.188690424E-1,-5.645219088E-1
2.996582708E0,-1.620747089E0,6.221953630E-1,-2.421159446E-1
3.006579708E0,-1.744707346E0,7.105971575E-1,1.471244693E-1
3.016576708E0,-1.830076575E0,7.802023292E-1,6.215855479E-1
3.026573708E0,-1.844124556E0,8.303163648E-1,1.145693779E0
3.036570708E0,-1.770690799E0,8.687937260E-1,1.661469460E0
3.046567708E0,-1.631923437E0,8.892438412E-1,2.077793360E0
3.056564708E0,-1.444031239E0,9.125859141E-1,2.387247086E0
3.066561708E0,-1.247887731E0,9.534727335E-1,2.604936838E0
3.076558708E0,-1.057181358E0,1.002993703E0,2.751037359E0
3.086555708E0,-8.811559677E-1,1.025144577E0,2.885859728E0
3.096552708E0,-7.016392350E-1,9.950526953E-1,3.028537273E0
3.106549708E0,-5.121743679E-1,9.241369963E-1,3.198518038E0
3.116547708E0,-3.450082839E-1,8.124312162E-1,3.380199432E0
3.126544708E0,-2.255796343E-1,6.585153341E-1,3.545209646E0
3.136541708E0,-1.663203090E-1,4.800478816E-1,3.672121763E0
3.146538708E0,-1.459131241E-1,3.184021115E-1,3.755873919E0
3.156535708E0,-1.578842998E-1,1.573066860E-1,3.795966625E0
3.166532708E0,-2.079925984E-1,3.590653464E-2,3.786436081E0
3.176529708E0,-3.038605452E-1,-3.911604360E-2,3.761266470E0
3.186526708E0,-4.274917245E-1,-6.313519925E-2,3.717089653E0
3.196523708E0,-5.376208425E-1,-4.751176015E-2,3.696603298E0
3.206520708E0,-6.488616467E-1,-3.359650448E-2,3.712378263E0
3.216517708E0,-7.782691717E-1,-1.359616406E-2,3.746127605E0
3.226514708E0,-9.380072951E-1,5.163219571E-2,3.800078630E0
3.236511708E0,-1.107815504E0,1.462103575E-1,3.863038063E0
3.246508708E0,-1.263777256E0,2.471573651E-1,3.933613062E0
3.256506708E0,-1.388666153E0,3.459172249E-1,3.996043682E0
3.266503708E0,-1.479007840E0,4.310071766E-1,4.035656929E0
3.276500708E0,-1.533213854E0,4.816748798E-1,4.048048019E0
3.286497708E0,-1.557290435E0,4.709957540E-1,4.024266243E0
3.296494708E0,-1.557315111E0,4.052849412E-1,3.958032846E0
3.306491708E0,-1.544440389E0,2.980379164E-1,3.877291918E0
3.316488708E0,-1.511371732E0,1.508969367E-1,3.777254581E0
3.326485708E0,-1.441098452E0,-2.722766995E-2,3.674502134E0
3.336482708E0,-1.341310024E0,-2.191891223E-1,3.595393658E0
3.346479708E0,-1.232864141E0,-4.292620420E-1,3.534554482E0
3.356476708E0,-1.116354346E0,-6.498322487E-1,3.493196964E0
3.366473708E0,-9.895697236E-1,-8.450886607E-1,3.456751347E0
